# Pulseq sequence file
# Created by MATLAB mr toolbox

# Created for Pulseq-CEST
# https://pulseq-cest.github.io/
# Created by: Kai Herz
# Created at: 05-Mar-2021 17:51:48

[VERSION]
major 1
minor 3
revision 0

[DEFINITIONS]
B0 3 
B1cwpe 1.94716 
DCsat 0.947867 
M0_offset -1560 
Trec 3.5 
Trec_M0 3.5 
Tsat 0.834 
n_pulses 8 
num_meas 81 
offsets_ppm -4 -3.9 -3.8 -3.7 -3.6 -3.5 -3.4 -3.3 -3.2 -3.1 -3 -2.9 -2.8 -2.7 -2.6 -2.5 -2.4 -2.3 -2.2 -2.1 -2 -1.9 -1.8 -1.7 -1.6 -1.5 -1.4 -1.3 -1.2 -1.1 -1 -0.9 -0.8 -0.7 -0.6 -0.5 -0.4 -0.3 -0.2 -0.1 0 0.1 0.2 0.3 0.4 0.5 0.6 0.7 0.8 0.9 1 1.1 1.2 1.3 1.4 1.5 1.6 1.7 1.8 1.9 2 2.1 2.2 2.3 2.4 2.5 2.6 2.7 2.8 2.9 3 3.1 3.2 3.3 3.4 3.5 3.6 3.7 3.8 3.9 4 
seq_id_string APTw_3T_003_2uT_8block_DC95_834ms_braintumor 
td 0.001 0.01 
tp 0.1 

# Format of blocks:
#  #  D RF  GX  GY  GZ ADC EXT
[BLOCKS]
   1  1  0   0   0   0  0  0
   2  0  1   0   0   0  0  0
   3  2  0   0   0   0  0  0
   4  0  2   0   0   0  0  0
   5  3  0   0   0   0  0  0
   6  0  3   0   0   0  0  0
   7  2  0   0   0   0  0  0
   8  0  4   0   0   0  0  0
   9  3  0   0   0   0  0  0
  10  0  5   0   0   0  0  0
  11  2  0   0   0   0  0  0
  12  0  6   0   0   0  0  0
  13  3  0   0   0   0  0  0
  14  0  7   0   0   0  0  0
  15  2  0   0   0   0  0  0
  16  0  8   0   0   0  0  0
  17  0  0   1   1   1  0  0
  18  0  0   0   0   0  1  0
  19  1  0   0   0   0  0  0
  20  0  9   0   0   0  0  0
  21  2  0   0   0   0  0  0
  22  0 10   0   0   0  0  0
  23  3  0   0   0   0  0  0
  24  0 11   0   0   0  0  0
  25  2  0   0   0   0  0  0
  26  0 12   0   0   0  0  0
  27  3  0   0   0   0  0  0
  28  0 13   0   0   0  0  0
  29  2  0   0   0   0  0  0
  30  0 14   0   0   0  0  0
  31  3  0   0   0   0  0  0
  32  0 15   0   0   0  0  0
  33  2  0   0   0   0  0  0
  34  0 16   0   0   0  0  0
  35  0  0   1   1   1  0  0
  36  0  0   0   0   0  1  0
  37  1  0   0   0   0  0  0
  38  0 17   0   0   0  0  0
  39  2  0   0   0   0  0  0
  40  0 18   0   0   0  0  0
  41  3  0   0   0   0  0  0
  42  0 19   0   0   0  0  0
  43  2  0   0   0   0  0  0
  44  0 20   0   0   0  0  0
  45  3  0   0   0   0  0  0
  46  0 21   0   0   0  0  0
  47  2  0   0   0   0  0  0
  48  0 22   0   0   0  0  0
  49  3  0   0   0   0  0  0
  50  0 23   0   0   0  0  0
  51  2  0   0   0   0  0  0
  52  0 24   0   0   0  0  0
  53  0  0   1   1   1  0  0
  54  0  0   0   0   0  1  0
  55  1  0   0   0   0  0  0
  56  0 25   0   0   0  0  0
  57  2  0   0   0   0  0  0
  58  0 26   0   0   0  0  0
  59  3  0   0   0   0  0  0
  60  0 27   0   0   0  0  0
  61  2  0   0   0   0  0  0
  62  0 28   0   0   0  0  0
  63  3  0   0   0   0  0  0
  64  0 29   0   0   0  0  0
  65  2  0   0   0   0  0  0
  66  0 30   0   0   0  0  0
  67  3  0   0   0   0  0  0
  68  0 31   0   0   0  0  0
  69  2  0   0   0   0  0  0
  70  0 32   0   0   0  0  0
  71  0  0   1   1   1  0  0
  72  0  0   0   0   0  1  0
  73  1  0   0   0   0  0  0
  74  0 33   0   0   0  0  0
  75  2  0   0   0   0  0  0
  76  0 34   0   0   0  0  0
  77  3  0   0   0   0  0  0
  78  0 35   0   0   0  0  0
  79  2  0   0   0   0  0  0
  80  0 36   0   0   0  0  0
  81  3  0   0   0   0  0  0
  82  0 37   0   0   0  0  0
  83  2  0   0   0   0  0  0
  84  0 38   0   0   0  0  0
  85  3  0   0   0   0  0  0
  86  0 39   0   0   0  0  0
  87  2  0   0   0   0  0  0
  88  0 40   0   0   0  0  0
  89  0  0   1   1   1  0  0
  90  0  0   0   0   0  1  0
  91  1  0   0   0   0  0  0
  92  0 41   0   0   0  0  0
  93  2  0   0   0   0  0  0
  94  0 42   0   0   0  0  0
  95  3  0   0   0   0  0  0
  96  0 43   0   0   0  0  0
  97  2  0   0   0   0  0  0
  98  0 44   0   0   0  0  0
  99  3  0   0   0   0  0  0
 100  0 45   0   0   0  0  0
 101  2  0   0   0   0  0  0
 102  0 46   0   0   0  0  0
 103  3  0   0   0   0  0  0
 104  0 47   0   0   0  0  0
 105  2  0   0   0   0  0  0
 106  0 48   0   0   0  0  0
 107  0  0   1   1   1  0  0
 108  0  0   0   0   0  1  0
 109  1  0   0   0   0  0  0
 110  0 49   0   0   0  0  0
 111  2  0   0   0   0  0  0
 112  0 50   0   0   0  0  0
 113  3  0   0   0   0  0  0
 114  0 51   0   0   0  0  0
 115  2  0   0   0   0  0  0
 116  0 52   0   0   0  0  0
 117  3  0   0   0   0  0  0
 118  0 53   0   0   0  0  0
 119  2  0   0   0   0  0  0
 120  0 54   0   0   0  0  0
 121  3  0   0   0   0  0  0
 122  0 55   0   0   0  0  0
 123  2  0   0   0   0  0  0
 124  0 56   0   0   0  0  0
 125  0  0   1   1   1  0  0
 126  0  0   0   0   0  1  0
 127  1  0   0   0   0  0  0
 128  0 57   0   0   0  0  0
 129  2  0   0   0   0  0  0
 130  0 58   0   0   0  0  0
 131  3  0   0   0   0  0  0
 132  0 59   0   0   0  0  0
 133  2  0   0   0   0  0  0
 134  0 60   0   0   0  0  0
 135  3  0   0   0   0  0  0
 136  0 61   0   0   0  0  0
 137  2  0   0   0   0  0  0
 138  0 62   0   0   0  0  0
 139  3  0   0   0   0  0  0
 140  0 63   0   0   0  0  0
 141  2  0   0   0   0  0  0
 142  0 64   0   0   0  0  0
 143  0  0   1   1   1  0  0
 144  0  0   0   0   0  1  0
 145  1  0   0   0   0  0  0
 146  0 65   0   0   0  0  0
 147  2  0   0   0   0  0  0
 148  0 66   0   0   0  0  0
 149  3  0   0   0   0  0  0
 150  0 67   0   0   0  0  0
 151  2  0   0   0   0  0  0
 152  0 68   0   0   0  0  0
 153  3  0   0   0   0  0  0
 154  0 69   0   0   0  0  0
 155  2  0   0   0   0  0  0
 156  0 70   0   0   0  0  0
 157  3  0   0   0   0  0  0
 158  0 71   0   0   0  0  0
 159  2  0   0   0   0  0  0
 160  0 72   0   0   0  0  0
 161  0  0   1   1   1  0  0
 162  0  0   0   0   0  1  0
 163  1  0   0   0   0  0  0
 164  0 73   0   0   0  0  0
 165  2  0   0   0   0  0  0
 166  0 74   0   0   0  0  0
 167  3  0   0   0   0  0  0
 168  0 75   0   0   0  0  0
 169  2  0   0   0   0  0  0
 170  0 76   0   0   0  0  0
 171  3  0   0   0   0  0  0
 172  0 77   0   0   0  0  0
 173  2  0   0   0   0  0  0
 174  0 78   0   0   0  0  0
 175  3  0   0   0   0  0  0
 176  0 79   0   0   0  0  0
 177  2  0   0   0   0  0  0
 178  0 80   0   0   0  0  0
 179  0  0   1   1   1  0  0
 180  0  0   0   0   0  1  0
 181  1  0   0   0   0  0  0
 182  0 81   0   0   0  0  0
 183  2  0   0   0   0  0  0
 184  0 82   0   0   0  0  0
 185  3  0   0   0   0  0  0
 186  0 83   0   0   0  0  0
 187  2  0   0   0   0  0  0
 188  0 84   0   0   0  0  0
 189  3  0   0   0   0  0  0
 190  0 85   0   0   0  0  0
 191  2  0   0   0   0  0  0
 192  0 86   0   0   0  0  0
 193  3  0   0   0   0  0  0
 194  0 87   0   0   0  0  0
 195  2  0   0   0   0  0  0
 196  0 88   0   0   0  0  0
 197  0  0   1   1   1  0  0
 198  0  0   0   0   0  1  0
 199  1  0   0   0   0  0  0
 200  0 89   0   0   0  0  0
 201  2  0   0   0   0  0  0
 202  0 90   0   0   0  0  0
 203  3  0   0   0   0  0  0
 204  0 91   0   0   0  0  0
 205  2  0   0   0   0  0  0
 206  0 92   0   0   0  0  0
 207  3  0   0   0   0  0  0
 208  0 93   0   0   0  0  0
 209  2  0   0   0   0  0  0
 210  0 94   0   0   0  0  0
 211  3  0   0   0   0  0  0
 212  0 95   0   0   0  0  0
 213  2  0   0   0   0  0  0
 214  0 96   0   0   0  0  0
 215  0  0   1   1   1  0  0
 216  0  0   0   0   0  1  0
 217  1  0   0   0   0  0  0
 218  0 97   0   0   0  0  0
 219  2  0   0   0   0  0  0
 220  0 98   0   0   0  0  0
 221  3  0   0   0   0  0  0
 222  0 99   0   0   0  0  0
 223  2  0   0   0   0  0  0
 224  0 100   0   0   0  0  0
 225  3  0   0   0   0  0  0
 226  0 101   0   0   0  0  0
 227  2  0   0   0   0  0  0
 228  0 102   0   0   0  0  0
 229  3  0   0   0   0  0  0
 230  0 103   0   0   0  0  0
 231  2  0   0   0   0  0  0
 232  0 104   0   0   0  0  0
 233  0  0   1   1   1  0  0
 234  0  0   0   0   0  1  0
 235  1  0   0   0   0  0  0
 236  0 105   0   0   0  0  0
 237  2  0   0   0   0  0  0
 238  0 106   0   0   0  0  0
 239  3  0   0   0   0  0  0
 240  0 107   0   0   0  0  0
 241  2  0   0   0   0  0  0
 242  0 108   0   0   0  0  0
 243  3  0   0   0   0  0  0
 244  0 109   0   0   0  0  0
 245  2  0   0   0   0  0  0
 246  0 110   0   0   0  0  0
 247  3  0   0   0   0  0  0
 248  0 111   0   0   0  0  0
 249  2  0   0   0   0  0  0
 250  0 112   0   0   0  0  0
 251  0  0   1   1   1  0  0
 252  0  0   0   0   0  1  0
 253  1  0   0   0   0  0  0
 254  0 113   0   0   0  0  0
 255  2  0   0   0   0  0  0
 256  0 114   0   0   0  0  0
 257  3  0   0   0   0  0  0
 258  0 115   0   0   0  0  0
 259  2  0   0   0   0  0  0
 260  0 116   0   0   0  0  0
 261  3  0   0   0   0  0  0
 262  0 117   0   0   0  0  0
 263  2  0   0   0   0  0  0
 264  0 118   0   0   0  0  0
 265  3  0   0   0   0  0  0
 266  0 119   0   0   0  0  0
 267  2  0   0   0   0  0  0
 268  0 120   0   0   0  0  0
 269  0  0   1   1   1  0  0
 270  0  0   0   0   0  1  0
 271  1  0   0   0   0  0  0
 272  0 121   0   0   0  0  0
 273  2  0   0   0   0  0  0
 274  0 122   0   0   0  0  0
 275  3  0   0   0   0  0  0
 276  0 123   0   0   0  0  0
 277  2  0   0   0   0  0  0
 278  0 124   0   0   0  0  0
 279  3  0   0   0   0  0  0
 280  0 125   0   0   0  0  0
 281  2  0   0   0   0  0  0
 282  0 126   0   0   0  0  0
 283  3  0   0   0   0  0  0
 284  0 127   0   0   0  0  0
 285  2  0   0   0   0  0  0
 286  0 128   0   0   0  0  0
 287  0  0   1   1   1  0  0
 288  0  0   0   0   0  1  0
 289  1  0   0   0   0  0  0
 290  0 129   0   0   0  0  0
 291  2  0   0   0   0  0  0
 292  0 130   0   0   0  0  0
 293  3  0   0   0   0  0  0
 294  0 131   0   0   0  0  0
 295  2  0   0   0   0  0  0
 296  0 132   0   0   0  0  0
 297  3  0   0   0   0  0  0
 298  0 133   0   0   0  0  0
 299  2  0   0   0   0  0  0
 300  0 134   0   0   0  0  0
 301  3  0   0   0   0  0  0
 302  0 135   0   0   0  0  0
 303  2  0   0   0   0  0  0
 304  0 136   0   0   0  0  0
 305  0  0   1   1   1  0  0
 306  0  0   0   0   0  1  0
 307  1  0   0   0   0  0  0
 308  0 137   0   0   0  0  0
 309  2  0   0   0   0  0  0
 310  0 138   0   0   0  0  0
 311  3  0   0   0   0  0  0
 312  0 139   0   0   0  0  0
 313  2  0   0   0   0  0  0
 314  0 140   0   0   0  0  0
[RF]
1      85.1528 1 2 100 -510.917 0
2      85.1528 1 2 100 -510.917 5.70714
3      85.1528 1 2 100 -510.917 5.1311
4      85.1528 1 2 100 -510.917 4.55506
5      85.1528 1 2 100 -510.917 3.97902
6      85.1528 1 2 100 -510.917 3.40297
7      85.1528 1 2 100 -510.917 2.82693
8      85.1528 1 2 100 -510.917 2.25089
9      85.1528 1 2 100 -498.144 0
10      85.1528 1 2 100 -498.144 1.16623
11      85.1528 1 2 100 -498.144 2.33247
12      85.1528 1 2 100 -498.144 3.4987
13      85.1528 1 2 100 -498.144 4.66494
14      85.1528 1 2 100 -498.144 5.83117
15      85.1528 1 2 100 -498.144 0.714222
16      85.1528 1 2 100 -498.144 1.88046
17      85.1528 1 2 100 -485.371 0
18      85.1528 1 2 100 -485.371 2.90851
19      85.1528 1 2 100 -485.371 5.81702
20      85.1528 1 2 100 -485.371 2.44235
21      85.1528 1 2 100 -485.371 5.35086
22      85.1528 1 2 100 -485.371 1.97619
23      85.1528 1 2 100 -485.371 4.8847
24      85.1528 1 2 100 -485.371 1.51003
25      85.1528 1 2 100 -472.598 0
26      85.1528 1 2 100 -472.598 4.65079
27      85.1528 1 2 100 -472.598 3.01839
28      85.1528 1 2 100 -472.598 1.386
29      85.1528 1 2 100 -472.598 6.03678
30      85.1528 1 2 100 -472.598 4.40439
31      85.1528 1 2 100 -472.598 2.77199
32      85.1528 1 2 100 -472.598 1.13959
33      85.1528 1 2 100 -459.825 0
34      85.1528 1 2 100 -459.825 0.10988
35      85.1528 1 2 100 -459.825 0.219761
36      85.1528 1 2 100 -459.825 0.329641
37      85.1528 1 2 100 -459.825 0.439521
38      85.1528 1 2 100 -459.825 0.549402
39      85.1528 1 2 100 -459.825 0.659282
40      85.1528 1 2 100 -459.825 0.769162
41      85.1528 1 2 100 -447.052 0
42      85.1528 1 2 100 -447.052 1.85216
43      85.1528 1 2 100 -447.052 3.70431
44      85.1528 1 2 100 -447.052 5.55647
45      85.1528 1 2 100 -447.052 1.12544
46      85.1528 1 2 100 -447.052 2.9776
47      85.1528 1 2 100 -447.052 4.82976
48      85.1528 1 2 100 -447.052 0.398731
49      85.1528 1 2 100 -434.279 0
50      85.1528 1 2 100 -434.279 3.59443
51      85.1528 1 2 100 -434.279 0.905683
52      85.1528 1 2 100 -434.279 4.50012
53      85.1528 1 2 100 -434.279 1.81137
54      85.1528 1 2 100 -434.279 5.4058
55      85.1528 1 2 100 -434.279 2.71705
56      85.1528 1 2 100 -434.279 0.0282995
57      85.1528 1 2 100 -421.506 0
58      85.1528 1 2 100 -421.506 5.33671
59      85.1528 1 2 100 -421.506 4.39024
60      85.1528 1 2 100 -421.506 3.44376
61      85.1528 1 2 100 -421.506 2.49729
62      85.1528 1 2 100 -421.506 1.55082
63      85.1528 1 2 100 -421.506 0.604342
64      85.1528 1 2 100 -421.506 5.94105
65      85.1528 1 2 100 -408.733 0
66      85.1528 1 2 100 -408.733 0.795803
67      85.1528 1 2 100 -408.733 1.59161
68      85.1528 1 2 100 -408.733 2.38741
69      85.1528 1 2 100 -408.733 3.18321
70      85.1528 1 2 100 -408.733 3.97902
71      85.1528 1 2 100 -408.733 4.77482
72      85.1528 1 2 100 -408.733 5.57062
73      85.1528 1 2 100 -395.961 0
74      85.1528 1 2 100 -395.961 2.53808
75      85.1528 1 2 100 -395.961 5.07616
76      85.1528 1 2 100 -395.961 1.33106
77      85.1528 1 2 100 -395.961 3.86914
78      85.1528 1 2 100 -395.961 0.12403
79      85.1528 1 2 100 -395.961 2.66211
80      85.1528 1 2 100 -395.961 5.20019
81      85.1528 1 2 100 -383.188 0
82      85.1528 1 2 100 -383.188 4.28036
83      85.1528 1 2 100 -383.188 2.27753
84      85.1528 1 2 100 -383.188 0.274701
85      85.1528 1 2 100 -383.188 4.55506
86      85.1528 1 2 100 -383.188 2.55223
87      85.1528 1 2 100 -383.188 0.549402
88      85.1528 1 2 100 -383.188 4.82976
89      85.1528 1 2 100 -370.415 0
90      85.1528 1 2 100 -370.415 6.02263
91      85.1528 1 2 100 -370.415 5.76208
92      85.1528 1 2 100 -370.415 5.50153
93      85.1528 1 2 100 -370.415 5.24098
94      85.1528 1 2 100 -370.415 4.98043
95      85.1528 1 2 100 -370.415 4.71988
96      85.1528 1 2 100 -370.415 4.45933
97      85.1528 1 2 100 -357.642 0
98      85.1528 1 2 100 -357.642 1.48173
99      85.1528 1 2 100 -357.642 2.96345
100      85.1528 1 2 100 -357.642 4.44518
101      85.1528 1 2 100 -357.642 5.9269
102      85.1528 1 2 100 -357.642 1.12544
103      85.1528 1 2 100 -357.642 2.60717
104      85.1528 1 2 100 -357.642 4.0889
105      85.1528 1 2 100 -344.869 0
106      85.1528 1 2 100 -344.869 3.224
107      85.1528 1 2 100 -344.869 0.164821
108      85.1528 1 2 100 -344.869 3.38882
109      85.1528 1 2 100 -344.869 0.329641
110      85.1528 1 2 100 -344.869 3.55364
111      85.1528 1 2 100 -344.869 0.494462
112      85.1528 1 2 100 -344.869 3.71846
113      85.1528 1 2 100 -332.096 0
114      85.1528 1 2 100 -332.096 4.96628
115      85.1528 1 2 100 -332.096 3.64937
116      85.1528 1 2 100 -332.096 2.33247
117      85.1528 1 2 100 -332.096 1.01556
118      85.1528 1 2 100 -332.096 5.98184
119      85.1528 1 2 100 -332.096 4.66494
120      85.1528 1 2 100 -332.096 3.34803
121      85.1528 1 2 100 -319.323 0
122      85.1528 1 2 100 -319.323 0.425372
123      85.1528 1 2 100 -319.323 0.850743
124      85.1528 1 2 100 -319.323 1.27611
125      85.1528 1 2 100 -319.323 1.70149
126      85.1528 1 2 100 -319.323 2.12686
127      85.1528 1 2 100 -319.323 2.55223
128      85.1528 1 2 100 -319.323 2.9776
129      85.1528 1 2 100 -306.55 0
130      85.1528 1 2 100 -306.55 2.16765
131      85.1528 1 2 100 -306.55 4.3353
132      85.1528 1 2 100 -306.55 0.219761
133      85.1528 1 2 100 -306.55 2.38741
134      85.1528 1 2 100 -306.55 4.55506
135      85.1528 1 2 100 -306.55 0.439521
136      85.1528 1 2 100 -306.55 2.60717
137      85.1528 1 2 100 -293.777 0
138      85.1528 1 2 100 -293.777 3.90993
139      85.1528 1 2 100 -293.777 1.53667
140      85.1528 1 2 100 -293.777 5.44659
141      85.1528 1 2 100 -293.777 3.07333
142      85.1528 1 2 100 -293.777 0.700073
143      85.1528 1 2 100 -293.777 4.61
144      85.1528 1 2 100 -293.777 2.23674
145      85.1528 1 2 100 -281.004 0
146      85.1528 1 2 100 -281.004 5.6522
147      85.1528 1 2 100 -281.004 5.02122
148      85.1528 1 2 100 -281.004 4.39024
149      85.1528 1 2 100 -281.004 3.75925
150      85.1528 1 2 100 -281.004 3.12827
151      85.1528 1 2 100 -281.004 2.49729
152      85.1528 1 2 100 -281.004 1.86631
153      85.1528 1 2 100 -268.231 0
154      85.1528 1 2 100 -268.231 1.11129
155      85.1528 1 2 100 -268.231 2.22259
156      85.1528 1 2 100 -268.231 3.33388
157      85.1528 1 2 100 -268.231 4.44518
158      85.1528 1 2 100 -268.231 5.55647
159      85.1528 1 2 100 -268.231 0.384581
160      85.1528 1 2 100 -268.231 1.49588
161      85.1528 1 2 100 -255.458 0
162      85.1528 1 2 100 -255.458 2.85357
163      85.1528 1 2 100 -255.458 5.70714
164      85.1528 1 2 100 -255.458 2.27753
165      85.1528 1 2 100 -255.458 5.1311
166      85.1528 1 2 100 -255.458 1.70149
167      85.1528 1 2 100 -255.458 4.55506
168      85.1528 1 2 100 -255.458 1.12544
169      85.1528 1 2 100 -242.685 0
170      85.1528 1 2 100 -242.685 4.59585
171      85.1528 1 2 100 -242.685 2.90851
172      85.1528 1 2 100 -242.685 1.22117
173      85.1528 1 2 100 -242.685 5.81702
174      85.1528 1 2 100 -242.685 4.12969
175      85.1528 1 2 100 -242.685 2.44235
176      85.1528 1 2 100 -242.685 0.755013
177      85.1528 1 2 100 -229.913 0
178      85.1528 1 2 100 -229.913 0.0549402
179      85.1528 1 2 100 -229.913 0.10988
180      85.1528 1 2 100 -229.913 0.164821
181      85.1528 1 2 100 -229.913 0.219761
182      85.1528 1 2 100 -229.913 0.274701
183      85.1528 1 2 100 -229.913 0.329641
184      85.1528 1 2 100 -229.913 0.384581
185      85.1528 1 2 100 -217.14 0
186      85.1528 1 2 100 -217.14 1.79722
187      85.1528 1 2 100 -217.14 3.59443
188      85.1528 1 2 100 -217.14 5.39165
189      85.1528 1 2 100 -217.14 0.905683
190      85.1528 1 2 100 -217.14 2.7029
191      85.1528 1 2 100 -217.14 4.50012
192      85.1528 1 2 100 -217.14 0.0141497
193      85.1528 1 2 100 -204.367 0
194      85.1528 1 2 100 -204.367 3.53949
195      85.1528 1 2 100 -204.367 0.795803
196      85.1528 1 2 100 -204.367 4.3353
197      85.1528 1 2 100 -204.367 1.59161
198      85.1528 1 2 100 -204.367 5.1311
199      85.1528 1 2 100 -204.367 2.38741
200      85.1528 1 2 100 -204.367 5.9269
201      85.1528 1 2 100 -191.594 0
202      85.1528 1 2 100 -191.594 5.28177
203      85.1528 1 2 100 -191.594 4.28036
204      85.1528 1 2 100 -191.594 3.27894
205      85.1528 1 2 100 -191.594 2.27753
206      85.1528 1 2 100 -191.594 1.27611
207      85.1528 1 2 100 -191.594 0.274701
208      85.1528 1 2 100 -191.594 5.55647
209      85.1528 1 2 100 -178.821 0
210      85.1528 1 2 100 -178.821 0.740863
211      85.1528 1 2 100 -178.821 1.48173
212      85.1528 1 2 100 -178.821 2.22259
213      85.1528 1 2 100 -178.821 2.96345
214      85.1528 1 2 100 -178.821 3.70431
215      85.1528 1 2 100 -178.821 4.44518
216      85.1528 1 2 100 -178.821 5.18604
217      85.1528 1 2 100 -166.048 0
218      85.1528 1 2 100 -166.048 2.48314
219      85.1528 1 2 100 -166.048 4.96628
220      85.1528 1 2 100 -166.048 1.16623
221      85.1528 1 2 100 -166.048 3.64937
222      85.1528 1 2 100 -166.048 6.13251
223      85.1528 1 2 100 -166.048 2.33247
224      85.1528 1 2 100 -166.048 4.81561
225      85.1528 1 2 100 -153.275 0
226      85.1528 1 2 100 -153.275 4.22542
227      85.1528 1 2 100 -153.275 2.16765
228      85.1528 1 2 100 -153.275 0.10988
229      85.1528 1 2 100 -153.275 4.3353
230      85.1528 1 2 100 -153.275 2.27753
231      85.1528 1 2 100 -153.275 0.219761
232      85.1528 1 2 100 -153.275 4.44518
233      85.1528 1 2 100 -140.502 0
234      85.1528 1 2 100 -140.502 5.96769
235      85.1528 1 2 100 -140.502 5.6522
236      85.1528 1 2 100 -140.502 5.33671
237      85.1528 1 2 100 -140.502 5.02122
238      85.1528 1 2 100 -140.502 4.70573
239      85.1528 1 2 100 -140.502 4.39024
240      85.1528 1 2 100 -140.502 4.07475
241      85.1528 1 2 100 -127.729 0
242      85.1528 1 2 100 -127.729 1.42679
243      85.1528 1 2 100 -127.729 2.85357
244      85.1528 1 2 100 -127.729 4.28036
245      85.1528 1 2 100 -127.729 5.70714
246      85.1528 1 2 100 -127.729 0.850743
247      85.1528 1 2 100 -127.729 2.27753
248      85.1528 1 2 100 -127.729 3.70431
249      85.1528 1 2 100 -114.956 0
250      85.1528 1 2 100 -114.956 3.16906
251      85.1528 1 2 100 -114.956 0.0549402
252      85.1528 1 2 100 -114.956 3.224
253      85.1528 1 2 100 -114.956 0.10988
254      85.1528 1 2 100 -114.956 3.27894
255      85.1528 1 2 100 -114.956 0.164821
256      85.1528 1 2 100 -114.956 3.33388
257      85.1528 1 2 100 -102.183 0
258      85.1528 1 2 100 -102.183 4.91134
259      85.1528 1 2 100 -102.183 3.53949
260      85.1528 1 2 100 -102.183 2.16765
261      85.1528 1 2 100 -102.183 0.795803
262      85.1528 1 2 100 -102.183 5.70714
263      85.1528 1 2 100 -102.183 4.3353
264      85.1528 1 2 100 -102.183 2.96345
265      85.1528 1 2 100 -89.4104 0
266      85.1528 1 2 100 -89.4104 0.370431
267      85.1528 1 2 100 -89.4104 0.740863
268      85.1528 1 2 100 -89.4104 1.11129
269      85.1528 1 2 100 -89.4104 1.48173
270      85.1528 1 2 100 -89.4104 1.85216
271      85.1528 1 2 100 -89.4104 2.22259
272      85.1528 1 2 100 -89.4104 2.59302
273      85.1528 1 2 100 -76.6375 0
274      85.1528 1 2 100 -76.6375 2.11271
275      85.1528 1 2 100 -76.6375 4.22542
276      85.1528 1 2 100 -76.6375 0.0549402
277      85.1528 1 2 100 -76.6375 2.16765
278      85.1528 1 2 100 -76.6375 4.28036
279      85.1528 1 2 100 -76.6375 0.10988
280      85.1528 1 2 100 -76.6375 2.22259
281      85.1528 1 2 100 -63.8646 0
282      85.1528 1 2 100 -63.8646 3.85499
283      85.1528 1 2 100 -63.8646 1.42679
284      85.1528 1 2 100 -63.8646 5.28177
285      85.1528 1 2 100 -63.8646 2.85357
286      85.1528 1 2 100 -63.8646 0.425372
287      85.1528 1 2 100 -63.8646 4.28036
288      85.1528 1 2 100 -63.8646 1.85216
289      85.1528 1 2 100 -51.0917 0
290      85.1528 1 2 100 -51.0917 5.59726
291      85.1528 1 2 100 -51.0917 4.91134
292      85.1528 1 2 100 -51.0917 4.22542
293      85.1528 1 2 100 -51.0917 3.53949
294      85.1528 1 2 100 -51.0917 2.85357
295      85.1528 1 2 100 -51.0917 2.16765
296      85.1528 1 2 100 -51.0917 1.48173
297      85.1528 1 2 100 -38.3188 0
298      85.1528 1 2 100 -38.3188 1.05635
299      85.1528 1 2 100 -38.3188 2.11271
300      85.1528 1 2 100 -38.3188 3.16906
301      85.1528 1 2 100 -38.3188 4.22542
302      85.1528 1 2 100 -38.3188 5.28177
303      85.1528 1 2 100 -38.3188 0.0549402
304      85.1528 1 2 100 -38.3188 1.11129
305      85.1528 1 2 100 -25.5458 0
306      85.1528 1 2 100 -25.5458 2.79863
307      85.1528 1 2 100 -25.5458 5.59726
308      85.1528 1 2 100 -25.5458 2.11271
309      85.1528 1 2 100 -25.5458 4.91134
310      85.1528 1 2 100 -25.5458 1.42679
311      85.1528 1 2 100 -25.5458 4.22542
312      85.1528 1 2 100 -25.5458 0.740863
313      85.1528 1 2 100 -12.7729 0
314      85.1528 1 2 100 -12.7729 4.54091
315      85.1528 1 2 100 -12.7729 2.79863
316      85.1528 1 2 100 -12.7729 1.05635
317      85.1528 1 2 100 -12.7729 5.59726
318      85.1528 1 2 100 -12.7729 3.85499
319      85.1528 1 2 100 -12.7729 2.11271
320      85.1528 1 2 100 -12.7729 0.370431
321      85.1528 1 2 100 0 0
322      85.1528 1 2 100 12.7729 0
323      85.1528 1 2 100 12.7729 1.74228
324      85.1528 1 2 100 12.7729 3.48455
325      85.1528 1 2 100 12.7729 5.22683
326      85.1528 1 2 100 12.7729 0.685923
327      85.1528 1 2 100 12.7729 2.4282
328      85.1528 1 2 100 12.7729 4.17048
329      85.1528 1 2 100 12.7729 5.91275
330      85.1528 1 2 100 25.5458 0
331      85.1528 1 2 100 25.5458 3.48455
332      85.1528 1 2 100 25.5458 0.685923
333      85.1528 1 2 100 25.5458 4.17048
334      85.1528 1 2 100 25.5458 1.37185
335      85.1528 1 2 100 25.5458 4.8564
336      85.1528 1 2 100 25.5458 2.05777
337      85.1528 1 2 100 25.5458 5.54232
338      85.1528 1 2 100 38.3188 0
339      85.1528 1 2 100 38.3188 5.22683
340      85.1528 1 2 100 38.3188 4.17048
341      85.1528 1 2 100 38.3188 3.11412
342      85.1528 1 2 100 38.3188 2.05777
343      85.1528 1 2 100 38.3188 1.00141
344      85.1528 1 2 100 38.3188 6.22825
345      85.1528 1 2 100 38.3188 5.17189
346      85.1528 1 2 100 51.0917 0
347      85.1528 1 2 100 51.0917 0.685923
348      85.1528 1 2 100 51.0917 1.37185
349      85.1528 1 2 100 51.0917 2.05777
350      85.1528 1 2 100 51.0917 2.74369
351      85.1528 1 2 100 51.0917 3.42961
352      85.1528 1 2 100 51.0917 4.11554
353      85.1528 1 2 100 51.0917 4.80146
354      85.1528 1 2 100 63.8646 0
355      85.1528 1 2 100 63.8646 2.4282
356      85.1528 1 2 100 63.8646 4.8564
357      85.1528 1 2 100 63.8646 1.00141
358      85.1528 1 2 100 63.8646 3.42961
359      85.1528 1 2 100 63.8646 5.85781
360      85.1528 1 2 100 63.8646 2.00283
361      85.1528 1 2 100 63.8646 4.43103
362      85.1528 1 2 100 76.6375 0
363      85.1528 1 2 100 76.6375 4.17048
364      85.1528 1 2 100 76.6375 2.05777
365      85.1528 1 2 100 76.6375 6.22825
366      85.1528 1 2 100 76.6375 4.11554
367      85.1528 1 2 100 76.6375 2.00283
368      85.1528 1 2 100 76.6375 6.1733
369      85.1528 1 2 100 76.6375 4.0606
370      85.1528 1 2 100 89.4104 0
371      85.1528 1 2 100 89.4104 5.91275
372      85.1528 1 2 100 89.4104 5.54232
373      85.1528 1 2 100 89.4104 5.17189
374      85.1528 1 2 100 89.4104 4.80146
375      85.1528 1 2 100 89.4104 4.43103
376      85.1528 1 2 100 89.4104 4.0606
377      85.1528 1 2 100 89.4104 3.69016
378      85.1528 1 2 100 102.183 0
379      85.1528 1 2 100 102.183 1.37185
380      85.1528 1 2 100 102.183 2.74369
381      85.1528 1 2 100 102.183 4.11554
382      85.1528 1 2 100 102.183 5.48738
383      85.1528 1 2 100 102.183 0.576042
384      85.1528 1 2 100 102.183 1.94789
385      85.1528 1 2 100 102.183 3.31973
386      85.1528 1 2 100 114.956 0
387      85.1528 1 2 100 114.956 3.11412
388      85.1528 1 2 100 114.956 6.22825
389      85.1528 1 2 100 114.956 3.05918
390      85.1528 1 2 100 114.956 6.1733
391      85.1528 1 2 100 114.956 3.00424
392      85.1528 1 2 100 114.956 6.11836
393      85.1528 1 2 100 114.956 2.9493
394      85.1528 1 2 100 127.729 0
395      85.1528 1 2 100 127.729 4.8564
396      85.1528 1 2 100 127.729 3.42961
397      85.1528 1 2 100 127.729 2.00283
398      85.1528 1 2 100 127.729 0.576042
399      85.1528 1 2 100 127.729 5.43244
400      85.1528 1 2 100 127.729 4.00566
401      85.1528 1 2 100 127.729 2.57887
402      85.1528 1 2 100 140.502 0
403      85.1528 1 2 100 140.502 0.315491
404      85.1528 1 2 100 140.502 0.630983
405      85.1528 1 2 100 140.502 0.946474
406      85.1528 1 2 100 140.502 1.26197
407      85.1528 1 2 100 140.502 1.57746
408      85.1528 1 2 100 140.502 1.89295
409      85.1528 1 2 100 140.502 2.20844
410      85.1528 1 2 100 153.275 0
411      85.1528 1 2 100 153.275 2.05777
412      85.1528 1 2 100 153.275 4.11554
413      85.1528 1 2 100 153.275 6.1733
414      85.1528 1 2 100 153.275 1.94789
415      85.1528 1 2 100 153.275 4.00566
416      85.1528 1 2 100 153.275 6.06342
417      85.1528 1 2 100 153.275 1.83801
418      85.1528 1 2 100 166.048 0
419      85.1528 1 2 100 166.048 3.80005
420      85.1528 1 2 100 166.048 1.31691
421      85.1528 1 2 100 166.048 5.11695
422      85.1528 1 2 100 166.048 2.63381
423      85.1528 1 2 100 166.048 0.150671
424      85.1528 1 2 100 166.048 3.95072
425      85.1528 1 2 100 166.048 1.46758
426      85.1528 1 2 100 178.821 0
427      85.1528 1 2 100 178.821 5.54232
428      85.1528 1 2 100 178.821 4.80146
429      85.1528 1 2 100 178.821 4.0606
430      85.1528 1 2 100 178.821 3.31973
431      85.1528 1 2 100 178.821 2.57887
432      85.1528 1 2 100 178.821 1.83801
433      85.1528 1 2 100 178.821 1.09714
434      85.1528 1 2 100 191.594 0
435      85.1528 1 2 100 191.594 1.00141
436      85.1528 1 2 100 191.594 2.00283
437      85.1528 1 2 100 191.594 3.00424
438      85.1528 1 2 100 191.594 4.00566
439      85.1528 1 2 100 191.594 5.00707
440      85.1528 1 2 100 191.594 6.00848
441      85.1528 1 2 100 191.594 0.726713
442      85.1528 1 2 100 204.367 0
443      85.1528 1 2 100 204.367 2.74369
444      85.1528 1 2 100 204.367 5.48738
445      85.1528 1 2 100 204.367 1.94789
446      85.1528 1 2 100 204.367 4.69158
447      85.1528 1 2 100 204.367 1.15208
448      85.1528 1 2 100 204.367 3.89578
449      85.1528 1 2 100 204.367 0.356282
450      85.1528 1 2 100 217.14 0
451      85.1528 1 2 100 217.14 4.48597
452      85.1528 1 2 100 217.14 2.68875
453      85.1528 1 2 100 217.14 0.891534
454      85.1528 1 2 100 217.14 5.3775
455      85.1528 1 2 100 217.14 3.58028
456      85.1528 1 2 100 217.14 1.78307
457      85.1528 1 2 100 217.14 6.26904
458      85.1528 1 2 100 229.913 0
459      85.1528 1 2 100 229.913 6.22825
460      85.1528 1 2 100 229.913 6.1733
461      85.1528 1 2 100 229.913 6.11836
462      85.1528 1 2 100 229.913 6.06342
463      85.1528 1 2 100 229.913 6.00848
464      85.1528 1 2 100 229.913 5.95354
465      85.1528 1 2 100 229.913 5.8986
466      85.1528 1 2 100 242.685 0
467      85.1528 1 2 100 242.685 1.68734
468      85.1528 1 2 100 242.685 3.37467
469      85.1528 1 2 100 242.685 5.06201
470      85.1528 1 2 100 242.685 0.466162
471      85.1528 1 2 100 242.685 2.1535
472      85.1528 1 2 100 242.685 3.84084
473      85.1528 1 2 100 242.685 5.52817
474      85.1528 1 2 100 255.458 0
475      85.1528 1 2 100 255.458 3.42961
476      85.1528 1 2 100 255.458 0.576042
477      85.1528 1 2 100 255.458 4.00566
478      85.1528 1 2 100 255.458 1.15208
479      85.1528 1 2 100 255.458 4.5817
480      85.1528 1 2 100 255.458 1.72813
481      85.1528 1 2 100 255.458 5.15774
482      85.1528 1 2 100 268.231 0
483      85.1528 1 2 100 268.231 5.17189
484      85.1528 1 2 100 268.231 4.0606
485      85.1528 1 2 100 268.231 2.9493
486      85.1528 1 2 100 268.231 1.83801
487      85.1528 1 2 100 268.231 0.726713
488      85.1528 1 2 100 268.231 5.8986
489      85.1528 1 2 100 268.231 4.78731
490      85.1528 1 2 100 281.004 0
491      85.1528 1 2 100 281.004 0.630983
